time (s)	magX	magY	magZ
2744.669156	-19.851948	181.685287	-63.957596
2744.672509	-21.137741	183.672424	-66.236969
2744.675875	-21.254639	185.659561	-68.340996
2744.679253	-22.306648	187.354477	-70.269699
2744.682569	-23.066437	189.575394	-72.373726
2744.685906	-23.417107	191.328766	-75.062218
2744.689152	-23.358665	193.725021	-77.458473
2744.692484	-24.644463	195.829041	-79.620956
2744.695817	-25.228920	198.868210	-81.724983
2744.699187	-25.696480	201.498260	-85.173264
2744.702505	-26.222488	203.952942	-87.569519
2744.705905	-27.391396	207.576569	-89.790443
2744.709284	-27.975845	209.505264	-93.180275
2744.712536	-28.326515	211.959976	-96.102539
2744.715817	-29.436981	214.590012	-100.135269
2744.719190	-30.547447	217.044724	-103.057541
2744.722506	-31.950134	220.142334	-106.447372
2744.725851	-32.768372	222.071014	-110.655441
2744.729174	-33.528152	225.051727	-113.928375
2744.732554	-34.521729	227.915558	-117.376656
2744.735457	-35.749077	230.194916	-121.000267
2744.739158	-36.801094	233.935410	-125.968124
2744.742472	-37.560890	235.630341	-129.883957
2744.745803	-38.729790	238.727936	-134.618042
2744.748724	-40.483154	242.000885	-139.176758
2744.752051	-41.535172	244.806259	-144.319962
2744.755390	-42.411850	246.618073	-148.878693
2744.758751	-44.165215	250.709244	-153.846558
2744.762116	-45.392563	253.456192	-158.522186
2744.765411	-47.145927	256.553772	-164.308273
2744.768721	-48.431725	258.657776	-169.159241
2744.772052	-50.068192	261.229401	-175.822006
2744.775386	-51.412437	264.443878	-181.140533
2744.778717	-52.932014	266.840149	-186.809723
2744.782056	-55.094490	270.113098	-193.121826
2744.785391	-56.438736	272.684662	-200.427490
2744.788719	-57.549194	275.899170	-206.622711
2744.792075	-60.062340	277.477203	-213.928375
2744.795403	-61.991043	279.931915	-220.006683
2744.798737	-63.335281	282.094391	-228.422821
2744.802078	-66.199104	284.607513	-235.845398
2744.805399	-67.017349	286.594666	-244.086182
2744.808711	-69.588943	288.464935	-251.333405
2744.812048	-71.692970	289.692291	-259.340424
2744.815386	-73.972336	291.679443	-268.516327
2744.818717	-76.485497	293.549683	-276.347992
2744.822062	-78.531082	295.244598	-285.290161
2744.825381	-81.102676	295.945923	-293.940063
2744.828717	-83.265160	296.881042	-303.758881
2744.832064	-86.012077	298.342163	-312.817932
2744.835404	-88.291451	298.692871	-322.227631
2744.838764	-90.746162	298.459076	-331.871094
2744.841622	-93.025520	299.101959	-341.748383
2744.844953	-95.188011	298.342163	-353.378998
2744.848288	-98.110283	297.933075	-362.730255
2744.851621	-100.506523	296.413483	-373.834869
2744.854955	-103.370354	296.062836	-384.355042
2744.858323	-105.415947	293.725006	-396.219452
2744.861619	-108.805763	291.387207	-407.324036
2744.864955	-111.669594	289.750732	-418.253357
2744.868286	-114.007408	285.951782	-430.351532
2744.871620	-116.754341	283.613953	-441.631470
2744.874945	-119.735054	280.399475	-454.255676
2744.878284	-123.007988	275.606934	-464.834290
2744.881615	-124.995125	271.048218	-476.815613
2744.884944	-128.326508	265.495880	-488.679962
2744.888282	-130.664337	260.703369	-500.427521
2744.891619	-133.703491	254.215958	-511.181458
2744.894944	-136.567322	248.020752	-523.747192
2744.898279	-139.255798	241.357986	-536.429810
2744.901628	-141.418274	233.876984	-546.774658
2744.904954	-144.457428	226.454422	-557.879272
2744.908292	-147.379700	217.804520	-569.276123
2744.911615	-150.477295	209.622162	-580.380737
2744.914946	-152.289124	200.329346	-590.257996
2744.918280	-155.269836	190.978088	-601.245728
2744.921617	-157.666077	179.990372	-610.655396
2744.924944	-159.653229	169.645538	-621.643127
2744.928284	-161.932617	158.657822	-630.351501
2744.931649	-163.861298	146.968735	-639.819641
2744.934939	-165.906891	136.097900	-648.528015
2744.938278	-168.244690	123.473701	-656.184326
2744.941613	-168.536926	110.323494	-664.132874
2744.944953	-170.231842	97.640854	-671.847717
2744.948275	-171.985199	84.139977	-678.510498
2744.951607	-173.095642	71.281998	-685.348572
2744.954937	-173.270996	58.014904	-690.783997
2744.958270	-174.907471	43.871128	-695.576477
2744.961607	-175.725677	29.961136	-699.141663
2744.964945	-176.193268	16.401814	-703.758850
2744.968277	-176.953033	2.959382	-706.505798
2744.971607	-176.777710	-13.113091	-708.843628
2744.974944	-177.420624	-26.906193	-709.603394
2744.978277	-176.894623	-40.933079	-712.291870
2744.981605	-176.485474	-54.083282	-712.642517
2744.984938	-176.427063	-68.285507	-711.473694
2744.988269	-175.316589	-81.494156	-710.772278
2744.991604	-174.615234	-95.404152	-709.018982
2744.994944	-174.206146	-108.495911	-705.103149
2744.998271	-173.270996	-121.120102	-703.057556
2745.001607	-171.634521	-133.802750	-699.083252
2745.004964	-170.056519	-146.134705	-694.056946
2745.008273	-168.770721	-158.583572	-690.024170
2745.011599	-167.134216	-169.454407	-682.426331
2745.014933	-165.439301	-180.149918	-675.938843
2745.018269	-163.510620	-191.546753	-669.042297
2745.021601	-161.406586	-201.424011	-660.509338
2745.024933	-159.594788	-211.593491	-652.911377
2745.028266	-157.315430	-220.944778	-642.975647
2745.031604	-154.977600	-229.127106	-632.923096
2745.034930	-152.756683	-237.309464	-624.565430
2745.038264	-150.009735	-244.790466	-615.214172
2745.041614	-147.671936	-252.271469	-604.518677
2745.044927	-145.801666	-259.168030	-594.407593
2745.048284	-143.522308	-265.655457	-582.367859
2745.051599	-140.249390	-271.149323	-570.269714
2745.054934	-137.794678	-276.292511	-559.281921
2745.058264	-134.872406	-281.611053	-548.294250
2745.061604	-132.593018	-285.526886	-536.196045
2745.064934	-129.612335	-289.208954	-523.630310
2745.068263	-126.631599	-292.949463	-510.830780
2745.071600	-123.650887	-295.988617	-499.784607
2745.074928	-121.020851	-299.203125	-487.218842
2745.078260	-118.040138	-301.424042	-475.179108
2745.081593	-114.767204	-302.943604	-462.905579
2745.084929	-112.137154	-304.287842	-451.099640
2745.088266	-109.039558	-305.632080	-439.585907
2745.091603	-106.058846	-306.742554	-426.669464
2745.094930	-103.721031	-306.391876	-414.688171
2745.098256	-100.915657	-307.093231	-402.882202
2745.101598	-97.993385	-307.619232	-391.076263
2745.104924	-95.188011	-307.210114	-380.030090
2745.108259	-92.557961	-306.567230	-368.925476
2745.111595	-89.811028	-305.690552	-357.703949
2745.114930	-87.882332	-304.638519	-347.359131
2745.118302	-85.018517	-302.534485	-336.722076
2745.121597	-82.271584	-301.248688	-326.552582
2745.124925	-79.933769	-299.436890	-316.266205
2745.128280	-77.712837	-298.209534	-306.330475
2745.131591	-75.667259	-296.222412	-297.329895
2745.134930	-72.452766	-293.767700	-288.387756
2745.138255	-70.231834	-292.131226	-279.562500
2745.141591	-68.712265	-289.618073	-269.802124
2745.144922	-66.491333	-286.754242	-261.093781
2745.148260	-64.679535	-285.000885	-252.619202
2745.151589	-63.218399	-281.844818	-244.553741
2745.154921	-61.289696	-279.214783	-236.605164
2745.158257	-59.127220	-276.292511	-229.124176
2745.161588	-57.549194	-273.604034	-221.760071
2745.164925	-55.795837	-270.623322	-214.688171
2745.168255	-54.510040	-267.233490	-206.973358
2745.171592	-52.932014	-264.837250	-199.667725
2745.174921	-51.061760	-261.388977	-193.998505
2745.178253	-49.600632	-258.466705	-187.920197
2745.181587	-48.490166	-255.135284	-181.257416
2745.184919	-46.853699	-251.979248	-175.938889
2745.188290	-45.567902	-249.173874	-169.451462
2745.191587	-43.639198	-246.836060	-164.425156
2745.194923	-42.879417	-243.796906	-158.522186
2745.198255	-42.002731	-240.582413	-154.021896
2745.201614	-40.249374	-237.660126	-148.995590
2745.204914	-39.197357	-234.913193	-144.203064
2745.208251	-37.911560	-232.341614	-138.592316
2745.211580	-37.327103	-229.360901	-134.033569
2745.214932	-36.041306	-226.321732	-130.351517
2745.218243	-34.463280	-223.516357	-125.851227
2745.221580	-33.469711	-221.061646	-121.818497
2745.224918	-32.417694	-218.197830	-118.720894
2745.228243	-31.248787	-214.807999	-114.921944
2745.231576	-30.781227	-212.353287	-110.246323
2745.234916	-29.320091	-209.606369	-107.090271
2745.238247	-28.618744	-207.151657	-103.758881
2745.241575	-27.917404	-204.521622	-100.252167
2745.244923	-27.157608	-202.534470	-97.446785
2745.248247	-26.690048	-199.845993	-94.115402
2745.251580	-25.638031	-196.748383	-91.426910
2745.254919	-25.112030	-194.352127	-88.913765
2745.258254	-23.884674	-192.014313	-85.933052
2745.261577	-22.891106	-189.267380	-82.484772
2745.264914	-22.891106	-187.046448	-80.497635
2745.268244	-21.780640	-185.293106	-78.276711
2745.271576	-20.962402	-182.195496	-76.523346
2745.274942	-20.728622	-180.851257	-74.127090
2745.278244	-20.261063	-179.039444	-71.613937
2745.281577	-19.384377	-176.643173	-69.919022
2745.284904	-19.150597	-174.130035	-67.873436
2745.288248	-19.150597	-171.850662	-66.587639
2745.291572	-18.390812	-170.272644	-64.658943
2745.294911	-17.981689	-168.227051	-62.554909
2745.298245	-17.105015	-166.415253	-60.333984
2745.301578	-16.579002	-164.252762	-59.223526
2745.304907	-16.462112	-162.966980	-57.879280
2745.308246	-15.702324	-161.038284	-56.418148
2745.311575	-15.760769	-159.869370	-55.190796
2745.314909	-15.410095	-158.174454	-54.255669
2745.318253	-14.825642	-156.011978	-51.742519
2745.322956	-13.948967	-153.323502	-48.761806
2745.326306	-13.481403	-151.511673	-48.235798
2745.329194	-12.955391	-149.933655	-46.540882
2745.332930	-13.189175	-148.706299	-45.488865
2745.335848	-12.078716	-147.537399	-44.845966
2745.339178	-11.728043	-146.426941	-43.618614
2745.342503	-11.552704	-145.374924	-42.975716
2745.345828	-11.728043	-143.972229	-41.748363
2745.349093	-11.143589	-142.394211	-41.456139
2745.352413	-10.033127	-141.634415	-40.930130
2745.355746	-9.799343	-140.114838	-39.819668
2745.359108	-9.740894	-139.004379	-38.592316
2745.362475	-10.150017	-138.303024	-37.598743
2745.365830	-9.039551	-137.192566	-36.955845
2745.369151	-9.098000	-136.257446	-36.196053
2745.372491	-8.864220	-134.854752	-35.436264
2745.375765	-8.162872	-134.387192	-35.144039
2745.379072	-8.455097	-133.335190	-34.676476
2745.382408	-8.104427	-132.867630	-33.975132
2745.385769	-8.045982	-131.231140	-33.215343
2745.389093	-7.403084	-131.231140	-33.040009
2745.392493	-7.110859	-130.471359	-31.695763
2745.395860	-7.052410	-129.945358	-30.994419
2745.399085	-6.643295	-128.659546	-30.702192
2745.402410	-6.526405	-128.425766	-30.935972
2745.405777	-6.058842	-127.490646	-30.000847
2745.409098	-6.000393	-127.315315	-29.825512
2745.412430	-5.825058	-127.315315	-29.299503
2745.415816	-6.058842	-126.263306	-28.598160
2745.419178	-5.649723	-125.678841	-28.890387
2745.422499	-5.649723	-125.269730	-29.007277
2745.425749	-5.123714	-124.919052	-28.773495
2745.429096	-5.065269	-124.568382	-28.364378
2745.432401	-4.539261	-124.217705	-28.013706
2745.435322	-4.013252	-123.341026	-28.247488
2745.438652	-4.539261	-122.698135	-27.955259
2745.441993	-4.305481	-122.639687	-28.364378
2745.445333	-4.013252	-121.938339	-27.429251
2745.448692	-4.071697	-121.821449	-27.370806
2745.452016	-3.428799	-121.587662	-27.370806
2745.455318	-3.253464	-121.412331	-27.663033
2745.458645	-3.779472	-121.879890	-27.137024
2745.461989	-4.013252	-121.237000	-27.253916
2745.465314	-3.545689	-121.120102	-26.961689
2745.468648	-3.136574	-120.944771	-27.020134
2745.471986	-2.961235	-120.827881	-27.429251
2745.475311	-2.844345	-121.412331	-28.013706
2745.478645	-2.902790	-121.353882	-27.604588
2745.482008	-2.318336	-121.646111	-26.727907
2745.485381	-1.383213	-121.470779	-27.195471
2745.488672	-1.792328	-121.529228	-27.429251
2745.491996	-1.500103	-121.821449	-27.663033
2745.495316	-1.733883	-121.938339	-27.487698
2745.498645	-1.032539	-121.763008	-27.312361
2745.501973	-0.564980	-121.879890	-27.721478
2745.505316	-0.798759	-122.289009	-27.955259
2745.508677	-0.915649	-123.107246	-28.364378
2745.511972	-0.506531	-122.815018	-28.130596
2745.515341	0.019474	-122.639687	-28.422823
2745.518218	0.019474	-123.633263	-28.364378
2745.521550	0.603928	-124.393051	-28.247488
2745.524885	0.428593	-124.743721	-28.948832
2745.528243	0.545483	-125.445061	-28.773495
2745.531560	0.779266	-124.626831	-28.890387
2745.534886	1.539055	-125.971077	-29.357948
2745.538217	1.363720	-127.256866	-30.409966
2745.541551	1.889725	-126.906197	-30.877527
2745.544886	2.181953	-127.432213	-31.169754
2745.548216	1.889725	-128.718002	-31.637318
2745.551547	2.824852	-129.419342	-31.695763
2745.554880	2.766407	-128.893326	-32.572441
2745.558217	2.415733	-130.529800	-32.923119
2745.561546	3.058632	-130.938919	-33.624458
2745.564884	3.175522	-131.464920	-33.566017
2745.568207	3.350864	-132.341614	-34.559586
2745.571545	3.818424	-132.926056	-35.260929
2745.574875	3.350864	-134.387192	-35.962273
2745.578213	3.584644	-134.620972	-36.371391
2745.581549	3.701534	-135.848328	-37.657188
2745.584877	4.344433	-137.251022	-38.475426
2745.588208	4.695107	-138.069244	-38.884541
2745.591546	4.928886	-138.945938	-39.644333
2745.594926	5.221115	-139.530380	-40.637901
2745.598219	5.513340	-141.049973	-42.040588
2745.601573	5.630230	-141.342178	-42.858826
2745.604873	6.214684	-142.744888	-43.092606
2745.608215	6.448463	-144.147568	-44.612186
2745.611547	6.565357	-145.141129	-45.138195
2745.614888	6.857582	-146.719162	-46.365547
2745.618208	7.442036	-147.888077	-47.592899
2745.621544	8.377163	-149.641434	-48.937141
2745.624874	8.903168	-150.810333	-49.755379
2745.628212	8.610943	-152.213028	-50.456722
2745.631540	9.312286	-153.265045	-52.151638
2745.634870	9.546066	-154.726181	-54.431004
2745.638210	9.955185	-156.421082	-55.483021
2745.641539	10.188965	-157.706894	-57.996170
2745.644894	10.656528	-160.103149	-59.106632
2745.648211	11.474766	-161.330505	-60.801548
2745.651534	11.474766	-162.966980	-61.912010
2745.654871	12.000771	-164.311218	-63.957596
2745.658207	12.702120	-166.181473	-65.477180
2745.661538	13.637245	-168.636185	-67.873436
2745.664870	13.520353	-170.331085	-69.276123
2745.668208	14.221699	-172.376678	-71.789276
2745.671535	15.273714	-173.779373	-74.477760
2745.674906	15.682831	-176.000290	-75.705116
2745.678206	16.442621	-178.162766	-77.984482
2745.681532	16.910183	-179.799240	-80.322296
2745.684872	16.910183	-181.435699	-82.309441
2745.688218	17.553082	-184.591751	-85.699272
2745.691532	18.838879	-186.462006	-88.270866
2745.694866	19.657116	-189.208939	-90.491791
2745.698202	20.300014	-190.377838	-93.881622
2745.701536	21.293585	-193.416992	-96.219437
2745.704865	21.936483	-195.521027	-100.018379
2745.708203	22.579382	-197.741959	-102.531525
2745.711529	23.163836	-199.962875	-105.512238
2745.714861	23.865181	-203.060486	-109.311188
2745.718219	24.917196	-204.813843	-112.993256
2745.721536	25.969213	-208.028351	-116.499969
2745.724862	26.612112	-210.599930	-120.883377
2745.728194	27.605682	-213.054642	-124.390091
2745.731530	29.300598	-215.450897	-128.247498
2745.734867	30.235723	-217.554932	-132.923111
2745.738201	30.937069	-220.535645	-137.481857
2745.741532	32.573540	-223.808578	-142.157471
2745.744861	34.034672	-226.087967	-147.183777
2745.748194	35.203579	-229.010208	-151.333405
2745.751530	35.495804	-231.464920	-156.242813
2745.754861	37.482948	-233.218292	-162.087341
2745.758195	39.002525	-236.374344	-167.347427
2745.761562	40.638996	-238.770584	-172.841309
2745.764858	41.866348	-241.985092	-178.276703
2745.768194	45.022400	-244.147568	-184.705688
2745.771524	46.132858	-246.310059	-190.784027
2745.774865	47.301765	-248.647873	-197.329895
2745.778199	49.756474	-250.693451	-204.577118
2745.781530	51.276051	-253.557266	-209.954102
2745.784862	52.678741	-256.070404	-217.961121
2745.788192	54.958107	-257.940674	-225.558990
2745.791523	56.828362	-260.278503	-233.332214
2745.794862	58.347939	-263.317657	-240.404114
2745.798195	60.802643	-265.421692	-248.644897
2745.801528	62.672897	-267.058167	-256.593475
2745.804868	64.660034	-269.220642	-265.126495
2745.808218	67.173187	-271.207794	-273.893311
2745.811518	69.394112	-273.019592	-282.952332
2745.814858	71.089027	-274.246948	-291.952942
2745.818191	73.835953	-276.584747	-300.953522
2745.821520	75.881546	-277.695190	-310.889221
2745.824856	78.511581	-278.630341	-320.532684
2745.828192	80.849396	-279.565491	-330.293091
2745.831524	83.011879	-279.740814	-340.813263
2745.834854	85.525024	-281.494171	-350.982727
2745.838189	88.505737	-281.085052	-362.087372
2745.841516	91.428009	-281.552612	-373.717957
2745.844851	93.765823	-281.260376	-384.413483
2745.848208	96.571198	-280.442139	-396.161011
2745.851520	99.201248	-279.916138	-407.382507
2745.854855	102.298843	-279.039459	-419.305359
2745.858183	105.337997	-278.045898	-430.351532
2745.861518	108.026489	-275.824951	-442.099030
2745.864849	110.364304	-274.480713	-454.431000
2745.868186	113.520355	-272.026001	-465.827850
2745.871512	116.617950	-268.986877	-478.101379
2745.874849	120.066231	-266.239929	-489.322906
2745.878245	122.988495	-262.382538	-502.063995
2745.881529	126.144554	-259.343353	-512.934814
2745.884880	129.475922	-254.550842	-525.091431
2745.888188	132.398193	-250.342789	-537.306519
2745.891538	135.729584	-245.608704	-549.580017
2745.894846	138.125854	-240.407074	-560.684631
2745.898183	141.749451	-234.153427	-570.620361
2745.901517	144.204163	-227.607529	-582.017212
2745.904850	147.360214	-220.535645	-593.297180
2745.908182	150.282486	-213.989761	-603.583557
2745.911512	152.854080	-206.625656	-612.116516
2745.914852	156.477692	-197.800415	-621.876892
2745.918186	158.815491	-189.208939	-631.461975
2745.921513	161.445541	-179.740784	-639.410522
2745.924845	163.608017	-170.447983	-647.125305
2745.928193	166.238068	-161.038284	-654.898560
2745.931514	168.283646	-150.459671	-662.087280
2745.934850	170.446136	-139.705719	-668.282532
2745.938178	172.608612	-128.250427	-675.354370
2745.941514	173.660614	-116.912041	-679.913147
2745.944842	175.706207	-105.222969	-684.881042
2745.948243	176.875122	-93.533897	-689.030640
2745.951511	177.693359	-81.494156	-691.894470
2745.954847	179.505157	-69.045296	-694.641357
2745.958177	180.732513	-56.421097	-695.985596
2745.961503	181.550751	-43.621563	-698.849426
2745.964842	181.901428	-29.886906	-698.907898
2745.968180	182.427429	-16.795147	-698.615662
2745.971511	182.193634	-2.183809	-697.680542
2745.974840	182.544312	10.381941	-696.102539
2745.978192	182.427429	23.590591	-694.056946
2745.981505	181.550751	36.857689	-690.842468
2745.984841	181.550751	50.709240	-687.511047
2745.988174	180.907837	64.619225	-683.536804
2745.991508	179.446716	76.717415	-678.919556
2745.994834	178.803802	90.042953	-673.834839
2745.998176	177.868683	102.433365	-666.821411
2746.002866	174.361969	127.389534	-652.852966
2746.005824	173.134613	139.078613	-645.079712
2746.009500	171.205917	150.884583	-637.364929
2746.012857	169.686340	162.456757	-628.072144
2746.016190	167.640747	173.035355	-619.071533
2746.019554	165.536713	183.789322	-609.778748
2746.022458	163.432678	193.725021	-600.427490
2746.025760	160.568863	204.888092	-590.374878
2746.029095	157.997269	213.362656	-580.205383
2746.032770	155.717896	222.071014	-569.802124
2746.035686	153.613861	230.370255	-559.515747
2746.039008	150.866928	237.734375	-548.177368
2746.042374	148.529114	245.858276	-537.540283
2746.045713	145.548401	252.404160	-524.214783
2746.049141	142.626129	258.891571	-512.934814
2746.052426	139.236298	265.028320	-501.654846
2746.055679	136.898499	270.346863	-489.673553
2746.059048	133.917786	275.899170	-479.270294
2746.062348	130.878632	280.633270	-467.405884
2746.065738	127.430351	284.782867	-456.476593
2746.069037	124.391190	289.107819	-446.190216
2746.072424	121.878036	292.088531	-434.384247
2746.075789	119.131104	294.777008	-423.045868
2746.079072	115.741280	298.225311	-412.642578
2746.082333	111.650101	300.621552	-400.778168
2746.085680	109.604515	302.667145	-390.141113
2746.089017	106.740692	303.836060	-378.978058
2746.092366	102.883301	304.478943	-368.867004
2746.095704	100.603928	306.407654	-357.937744
2746.099098	97.740112	306.641418	-347.534454
2746.102467	94.291824	306.582977	-336.722076
2746.105676	91.661789	306.466095	-327.955261
2746.109013	89.499313	306.173859	-318.311768
2746.112352	86.693939	305.238739	-308.376068
